# dimensionless total lensed [l(l+1)/2pi] C_l's
# for l=2 to 2500, i.e. number of multipoles equal to 2499
#
# -> if you prefer output in CAMB/HealPix/LensPix units/order, set 'format' to 'camb' in input file
# -> if you don't want to see such a header, set 'headers' to 'no' in input file
# -> for CMB lensing (phi), these are C_l^phi-phi for the lensing potential.
#    Remember the conversion factors:
#    C_l^dd (deflection) = l(l+1) C_l^phi-phi
#    C_l^gg (shear/convergence) = 1/4 (l(l+1))^2 C_l^phi-phi
#
# 1:l     2:TT                     3:EE                     4:TE                     5:BB                     6:phiphi                 7:TPhi                   8:Ephi               
    2       1.384686676815e-10       4.193379346630e-15       3.527991836710e-13       2.351522266812e-19       8.303908905858e-09       4.577129453220e-10      -1.845829688079e-12 
    3       1.310678752078e-10       5.374824114272e-15       3.969121590710e-13       4.704030643425e-19       5.115037264593e-09       3.250808079154e-10      -1.398332063708e-12 
    4       1.241234438695e-10       4.648721735817e-15       3.715484458774e-13       7.842222590342e-19       3.558789696454e-09       2.464374714482e-10      -9.155720435566e-13 
    5       1.189766181110e-10       3.101509558194e-15       3.167391638745e-13       1.176735828512e-18       2.658394924446e-09       1.948120585078e-10      -5.090955076866e-13 
    6       1.155085058429e-10       1.735321911455e-15       2.554010877775e-13       1.648096726175e-18       2.078208303534e-09       1.585901408314e-10      -2.097176557085e-13 
    7       1.133133356263e-10       9.389480465977e-16       2.008173845079e-13       2.198482000137e-18       1.677970013683e-09       1.319776206280e-10      -1.893484401375e-14 
    8       1.121110482421e-10       6.065955194740e-16       1.588395060614e-13       2.828089579494e-18       1.387841738716e-09       1.117761221595e-10       7.822979708029e-14 
    9       1.116493134970e-10       4.875044942457e-16       1.308018091081e-13       3.537134782660e-18       1.169339004226e-09       9.608897784452e-11       1.052000512179e-13 
   10       1.116934286677e-10       4.169624932668e-16       1.154105618853e-13       4.325846649282e-18       9.998312996953e-10       8.365375049427e-11       8.792858663616e-14 
   11       1.121864483574e-10       3.533516827118e-16       1.100120516495e-13       5.194464200422e-18       8.428579130540e-10       7.390981637227e-11       5.063140768189e-14 
   12       1.129716275896e-10       3.117507199672e-16       1.115386561571e-13       6.143232731125e-18       7.366600415745e-10       6.533577245430e-11       1.090071558137e-14 
   13       1.139995182458e-10       3.025518556652e-16       1.172902793692e-13       7.172400235395e-18       6.494385372036e-10       5.837072012958e-11      -1.920525372095e-14 
   14       1.152233146458e-10       3.175531469778e-16       1.252249675334e-13       8.282214056095e-18       5.768393794737e-10       5.230685873446e-11      -3.546777806103e-14 
   15       1.166276471539e-10       3.452369477384e-16       1.340315647717e-13       9.472917841662e-18       5.157050321127e-10       4.720521704666e-11      -3.814140609840e-14 
   16       1.181339151522e-10       3.834980541909e-16       1.430327579438e-13       1.074474887825e-17       4.637075346164e-10       4.280576614083e-11      -3.125144384422e-14 
   17       1.197736928941e-10       4.381620859048e-16       1.519998751667e-13       1.209793585054e-17       4.190875617693e-10       3.896531938690e-11      -2.005010164684e-14 
   18       1.214804914877e-10       5.147112686246e-16       1.611895609416e-13       1.353269688139e-17       3.803482824205e-10       3.561716549609e-11      -9.464828352199e-15 
   19       1.232650693790e-10       6.134378639561e-16       1.708235360033e-13       1.504923917057e-17       3.468790990016e-10       3.271292056691e-11      -2.105173128170e-15 
   20       1.251214165072e-10       7.322880319813e-16       1.810419357408e-13       1.664775612264e-17       3.173938614580e-10       3.013408394222e-11       3.362445911260e-16 
   21       1.270505005858e-10       8.706851479896e-16       1.917965008474e-13       1.832842988918e-17       2.914318244139e-10       2.783376512058e-11      -1.530834060548e-15 
   22       1.290251870014e-10       1.028237605653e-15       2.028989645344e-13       2.009142822149e-17       2.683742406994e-10       2.575490067029e-11      -5.900427318497e-15 
   23       1.310505414269e-10       1.205176662568e-15       2.140184351593e-13       2.193690847976e-17       2.479056664618e-10       2.388975597702e-11      -1.099380385529e-14 
   24       1.331206955288e-10       1.401742170436e-15       2.247361596812e-13       2.386501443041e-17       2.295545371799e-10       2.222259312834e-11      -1.492675659816e-14 
   25       1.352373070318e-10       1.618058891390e-15       2.347630704075e-13       2.587588197109e-17       2.131059304556e-10       2.073204326111e-11      -1.686286717932e-14 
   26       1.373885671273e-10       1.854459152438e-15       2.438525436040e-13       2.796963527637e-17       1.982630312080e-10       1.938038304785e-11      -1.647479242361e-14 
   27       1.395693976920e-10       2.113061877327e-15       2.518870715803e-13       3.014639228677e-17       1.848483825318e-10       1.815006126950e-11      -1.440427376742e-14 
   28       1.417681682545e-10       2.396515693365e-15       2.588212268951e-13       3.240626206411e-17       1.726313273514e-10       1.702208743854e-11      -1.169069083797e-14 
   29       1.439942349008e-10       2.706292952523e-15       2.647269895619e-13       3.474935371450e-17       1.615498112111e-10       1.599449489561e-11      -9.015539724529e-15 
   30       1.462522566101e-10       3.043475367113e-15       2.697537040285e-13       3.717576890450e-17       1.514852139117e-10       1.506143045436e-11      -7.069484930595e-15 
   31       1.485363847959e-10       3.409107749665e-15       2.740526560750e-13       3.968560179466e-17       1.422327085944e-10       1.420821190207e-11      -6.487450190695e-15 
   32       1.508497294669e-10       3.804303299821e-15       2.775649099154e-13       4.227895023524e-17       1.337446766045e-10       1.342611305017e-11      -7.070518580357e-15 
   33       1.531894815678e-10       4.230169046810e-15       2.801527049934e-13       4.495590851545e-17       1.259612140871e-10       1.270134526823e-11      -8.258519703864e-15 
   34       1.555458928152e-10       4.687724109383e-15       2.816622702315e-13       4.771656596608e-17       1.187735611519e-10       1.201678117483e-11      -9.430811786620e-15 
   35       1.579212753830e-10       5.177725765658e-15       2.819594124878e-13       5.056101238741e-17       1.121450083148e-10       1.137447781787e-11      -1.030031476028e-14 
   36       1.603158958855e-10       5.700768887857e-15       2.809039294461e-13       5.348933460075e-17       1.060224621284e-10       1.078027120906e-11      -1.064868714290e-14 
   37       1.627257420321e-10       6.257419817828e-15       2.783682739613e-13       5.650161452325e-17       1.003263442329e-10       1.023697491372e-11      -1.030316041912e-14 
   38       1.651550847173e-10       6.848550314071e-15       2.743378313782e-13       5.959792717160e-17       9.504197206343e-11       9.742371580088e-12      -9.420894186113e-15 
   39       1.676069053249e-10       7.475107462282e-15       2.688445149340e-13       6.277834208925e-17       9.015260784234e-11       9.290021580005e-12      -8.302528045444e-15 
   40       1.700787966865e-10       8.138023065009e-15       2.619415794995e-13       6.604292392720e-17       8.561166101191e-11       8.869375013528e-12      -7.322157211535e-15 
   41       1.725657384854e-10       8.838163648705e-15       2.536817807890e-13       6.939172948391e-17       8.135892139308e-11       8.468973692875e-12      -6.829270676703e-15 
   42       1.750708935255e-10       9.576163234672e-15       2.440401955564e-13       7.282479758311e-17       7.738187391867e-11       8.088109371898e-12      -6.804778068783e-15 
   43       1.775973573686e-10       1.035253450304e-14       2.329684517808e-13       7.634215595920e-17       7.366996105699e-11       7.728401474222e-12      -7.100986246052e-15 
   44       1.801447719360e-10       1.116770886310e-14       2.204154004984e-13       7.994382379945e-17       7.019618333282e-11       7.390502807000e-12      -7.532451834026e-15 
   45       1.827109594383e-10       1.202207962883e-14       2.063287584941e-13       8.362980801362e-17       6.692674028967e-11       7.074220100610e-12      -7.917082545494e-15 
   46       1.852982211296e-10       1.291615717412e-14       1.906613321414e-13       8.740009112265e-17       6.385647451432e-11       6.779128826241e-12      -8.219590497850e-15 
   47       1.879083337172e-10       1.385045277359e-14       1.733661416320e-13       9.125463945347e-17       6.098179774124e-11       6.503990433719e-12      -8.446958144054e-15 
   48       1.905405076851e-10       1.482543354448e-14       1.543944539918e-13       9.519340601240e-17       5.829000052579e-11       6.246483429426e-12      -8.608892264221e-15 
   49       1.931911556773e-10       1.584152083937e-14       1.336955936873e-13       9.921633010656e-17       5.575857409818e-11       6.003126245402e-12      -8.717992883134e-15 
   50       1.958560626417e-10       1.689906198175e-14       1.112220536671e-13       1.033233372277e-16       5.336198518557e-11       5.770267796673e-12      -8.790156833854e-15 
   51       1.985381280599e-10       1.799824015699e-14       8.694690341117e-14       1.075143395450e-16       5.109574171999e-11       5.547555075289e-12      -8.845525700221e-15 
   52       2.012413248939e-10       1.913913728398e-14       6.085077872183e-14       1.117892348917e-16       4.895768727791e-11       5.335273469996e-12      -8.908087166919e-15 
   53       2.039683657217e-10       2.032175574069e-14       3.291705289142e-14       1.161479061564e-16       4.694079939514e-11       5.133335094098e-12      -9.005638552655e-15 
   54       2.067205841441e-10       2.154601550244e-14       3.131896741181e-15       1.205902209172e-16       4.503286214875e-11       4.941251898704e-12      -9.169966769856e-15 
   55       2.094985041346e-10       2.281180224331e-14      -2.851573860039e-14       1.251160400175e-16       4.322018871436e-11       4.758372345130e-12      -9.426788339015e-15 
   56       2.123039854016e-10       2.411913218963e-14      -6.203431591636e-14       1.297252466300e-16       4.150062204855e-11       4.584721867346e-12      -9.762230619199e-15 
   57       2.151384032554e-10       2.546802320705e-14      -9.742946076772e-14       1.344177237714e-16       3.987319035660e-11       4.420324104184e-12      -1.014833900914e-14 
   58       2.180019175673e-10       2.685844656835e-14      -1.347038326724e-13       1.391933459748e-16       3.833417414442e-11       4.264939376490e-12      -1.055237311802e-14 
   59       2.208933809798e-10       2.829032607729e-14      -1.738570680763e-13       1.440519792718e-16       3.687693659173e-11       4.118048068904e-12      -1.093658776620e-14 
   60       2.238102471163e-10       2.976353719242e-14      -2.148857233249e-13       1.489934811747e-16       3.549175392522e-11       3.978834011653e-12      -1.125801398608e-14 
   61       2.267498501535e-10       3.127782570222e-14      -2.577837685272e-13       1.540177168122e-16       3.416851228815e-11       3.846411358785e-12      -1.147827885076e-14 
   62       2.297137868181e-10       3.283254440161e-14      -3.025443277032e-13       1.591246116084e-16       3.290588947066e-11       3.720602327242e-12      -1.159613609396e-14 
   63       2.327043595698e-10       3.442685548587e-14      -3.491582298105e-13       1.643141104503e-16       3.170394249083e-11       3.601305334825e-12      -1.162188194949e-14 
   64       2.357232447106e-10       3.605980242293e-14      -3.976134535516e-13       1.695861630626e-16       3.056134584263e-11       3.488258192175e-12      -1.156805820608e-14 
   65       2.387714441073e-10       3.773030652463e-14      -4.478950878246e-13       1.749407245021e-16       2.947531282082e-11       3.381029210516e-12      -1.144955173255e-14 
   66       2.418492369138e-10       3.943716351795e-14      -4.999852921739e-13       1.803777556528e-16       2.844151684593e-11       3.279008309400e-12      -1.128369400304e-14 
   67       2.449561312929e-10       4.117904011630e-14      -5.538632572408e-13       1.858972237204e-16       2.745401278916e-11       3.181398124449e-12      -1.109036062220e-14 
   68       2.480914897196e-10       4.295461078113e-14      -6.095067367690e-13       1.914991109745e-16       2.650682238537e-11       3.087417583391e-12      -1.088823981674e-14 
   69       2.512566599343e-10       4.476300785038e-14      -6.668970924973e-13       1.971834419282e-16       2.559923937219e-11       2.996980411196e-12      -1.068253744004e-14 
   70       2.544531910320e-10       4.660345687743e-14      -7.260152051438e-13       2.029502625800e-16       2.473146291557e-11       2.910138765195e-12      -1.047494802262e-14 
   71       2.576821675924e-10       4.847514466461e-14      -7.868399939291e-13       2.087996333458e-16       2.390299316595e-11       2.826879534944e-12      -1.026726689472e-14 
   72       2.609441786295e-10       5.037721941994e-14      -8.493484172205e-13       2.147316297651e-16       2.311259514301e-11       2.747120883939e-12      -1.006139173108e-14 
   73       2.642392865402e-10       5.230879091378e-14      -9.135154731757e-13       2.207463432061e-16       2.235826262045e-11       2.670708791337e-12      -9.859324095746e-15 
   74       2.675669960546e-10       5.426893063555e-14      -9.793142003866e-13       2.268438815716e-16       2.163718201065e-11       2.597413593667e-12      -9.663170986862e-15 
   75       2.709262231845e-10       5.625667195038e-14      -1.046715678523e-12       2.330243700045e-16       2.094569624945e-11       2.526926526551e-12      -9.475146381474e-15 
   76       2.743159024615e-10       5.827094460396e-14      -1.115688656637e-12       2.392879439782e-16       2.028021106998e-11       2.458940750445e-12      -9.297305586043e-15 
   77       2.777370051283e-10       6.031036410220e-14      -1.186198358401e-12       2.456347255530e-16       1.964018445237e-11       2.393419130552e-12      -9.130688946956e-15 
   78       2.811908342709e-10       6.237340403014e-14      -1.258207459154e-12       2.520648440517e-16       1.902561923318e-11       2.330369231736e-12      -8.976024072619e-15 
   79       2.846784015086e-10       6.445845712626e-14      -1.331676432039e-12       2.585784438316e-16       1.843615255869e-11       2.269761468529e-12      -8.833975304603e-15 
   80       2.882004090314e-10       6.656383409288e-14      -1.406563541010e-12       2.651756848336e-16       1.787103909412e-11       2.211527379260e-12      -8.705139783405e-15 
   81       2.917572316387e-10       6.868776240662e-14      -1.482824833840e-12       2.718567431319e-16       1.732913423274e-11       2.155557900189e-12      -8.590043514213e-15 
   82       2.953488987762e-10       7.082838512886e-14      -1.560414135130e-12       2.786218114831e-16       1.680887730514e-11       2.101701639631e-12      -8.489137432672e-15 
   83       2.989750765750e-10       7.298375971616e-14      -1.639283039321e-12       2.854710998762e-16       1.630827478835e-11       2.049763152091e-12      -8.402793470647e-15 
   84       3.026353612652e-10       7.515193024987e-14      -1.719381434694e-12       2.924048327953e-16       1.582538378041e-11       1.999551545075e-12      -8.330996909071e-15 
   85       3.063302546538e-10       7.733116048847e-14      -1.800659190522e-12       2.994232392846e-16       1.535989129426e-11       1.951039338465e-12      -8.272373454883e-15 
   86       3.100603181800e-10       7.951973744901e-14      -1.883064738095e-12       3.065265622359e-16       1.491176720950e-11       1.904226898814e-12      -8.224992910917e-15 
   87       3.138258633754e-10       8.171590146680e-14      -1.966544566498e-12       3.137150620162e-16       1.448077902579e-11       1.859093581216e-12      -8.186649642856e-15 
   88       3.176269391359e-10       8.391784623980e-14      -2.051043224542e-12       3.209890169610e-16       1.406648347986e-11       1.815596849363e-12      -8.154853540583e-15 
   89       3.214633189922e-10       8.612371887301e-14      -2.136503322697e-12       3.283487238691e-16       1.366821816254e-11       1.773671395601e-12      -8.126820979523e-15 
   90       3.253344883811e-10       8.833161992281e-14      -2.222865535026e-12       3.357944984969e-16       1.328509313573e-11       1.733228260989e-12      -8.099465781991e-15 
   91       3.292396319172e-10       9.053960344140e-14      -2.310068601119e-12       3.433266760522e-16       1.291598254942e-11       1.694153955356e-12      -8.069390178535e-15 
   92       3.331776206633e-10       9.274567702112e-14      -2.398049328023e-12       3.509456116885e-16       1.255951625870e-11       1.656309577356e-12      -8.032875769282e-15 
   93       3.371473809122e-10       9.494783161293e-14      -2.486743545188e-12       3.586516892289e-16       1.221440424827e-11       1.619564735755e-12      -7.986738444453e-15 
   94       3.411490916234e-10       9.714413601549e-14      -2.576089129390e-12       3.664453477643e-16       1.188048392908e-11       1.583907060458e-12      -7.931059861335e-15 
   95       3.451831443846e-10       9.933265674536e-14      -2.666023440449e-12       3.743270599875e-16       1.155781558881e-11       1.549347611661e-12      -7.866851981615e-15 
   96       3.492497705569e-10       1.015114299763e-13      -2.756482423565e-12       3.822973249198e-16       1.124635985559e-11       1.515887149332e-12      -7.795232499546e-15 
   97       3.533490337827e-10       1.036784619922e-13      -2.847400624335e-12       3.903566685179e-16       1.094597388345e-11       1.483515730981e-12      -7.717427662715e-15 
   98       3.574808224943e-10       1.058317296404e-13      -2.938711203770e-12       3.985056442810e-16       1.065640753768e-11       1.452212309423e-12      -7.634775092818e-15 
   99       3.616448424215e-10       1.079691807845e-13      -3.030345953305e-12       4.067448338585e-16       1.037729958027e-11       1.421944330555e-12      -7.548726606430e-15 
  100       3.658406090999e-10       1.100887347577e-13      -3.122235309816e-12       4.150748476565e-16       1.010817385526e-11       1.392667331115e-12      -7.460851035772e-15 
  101       3.700674403792e-10       1.121882828155e-13      -3.214308370639e-12       4.234963254455e-16       9.848435474200e-12       1.364324536456e-12      -7.372837049490e-15 
  102       3.743244489311e-10       1.142656885894e-13      -3.306492908577e-12       4.320099369673e-16       9.597367001482e-12       1.336846458310e-12      -7.286495973420e-15 
  103       3.786105347574e-10       1.163187885393e-13      -3.398715386922e-12       4.406163825423e-16       9.354124639794e-12       1.310150492559e-12      -7.203764611361e-15 
  104       3.829246290602e-10       1.183454461504e-13      -3.490901613095e-12       4.493163721931e-16       9.117929137950e-12       1.284160276228e-12      -7.126290220230e-15 
  105       3.872664795070e-10       1.203437218833e-13      -3.582978767809e-12       4.581105584952e-16       8.888676100968e-12       1.258867602826e-12      -7.054115510048e-15 
  106       3.916359575703e-10       1.223117271334e-13      -3.674873679284e-12       4.669995957453e-16       8.666401396285e-12       1.234278159923e-12      -6.986820438391e-15 
  107       3.960328119655e-10       1.242475735681e-13      -3.766512230865e-12       4.759841610013e-16       8.451092138846e-12       1.210392333943e-12      -6.923922443666e-15 
