# dimensionless total [l(l+1)/2pi] C_l's
# for l=2 to 3000, i.e. number of multipoles equal to 2999
#
# -> if you prefer output in CAMB/HealPix/LensPix units/order, set 'format' to 'camb' in input file
# -> if you don't want to see such a header, set 'headers' to 'no' in input file
# -> for CMB lensing (phi), these are C_l^phi-phi for the lensing potential.
#    Remember the conversion factors:
#    C_l^dd (deflection) = l(l+1) C_l^phi-phi
#    C_l^gg (shear/convergence) = 1/4 (l(l+1))^2 C_l^phi-phi
#
# 1:l     2:TT                     3:EE                     4:TE                     5:BB                     6:phiphi                 7:TPhi                   8:Ephi               
    2       1.383168097848e-10       4.188525862325e-15       3.524572021798e-13       0.000000000000e+00       8.259033851802e-09       4.553139989110e-10      -1.844742697982e-12 
    3       1.308811872865e-10       5.367197230560e-15       3.963149182034e-13       0.000000000000e+00       5.083553747790e-09       3.230129524787e-10      -1.397223213678e-12 
    4       1.238990589737e-10       4.640317989362e-15       3.707427627786e-13       0.000000000000e+00       3.535296953197e-09       2.446477362104e-10      -9.145828158565e-13 
    5       1.187084273305e-10       3.093505659732e-15       3.157806253936e-13       0.000000000000e+00       2.639910494014e-09       1.932470393574e-10      -5.082341741843e-13 
    6       1.151887638615e-10       1.728135599201e-15       2.543367323519e-13       0.000000000000e+00       2.063035176464e-09       1.572120901632e-10      -2.089405212951e-13 
    7       1.129353061454e-10       9.326011952462e-16       1.996722170701e-13       0.000000000000e+00       1.665160879727e-09       1.307589330529e-10      -1.818675040773e-14 
    8       1.116637386091e-10       6.007921154561e-16       1.576141417490e-13       0.000000000000e+00       1.376842582615e-09       1.106933782384e-10       7.898738762633e-14 
    9       1.111232794697e-10       4.815668637896e-16       1.294743353943e-13       0.000000000000e+00       1.159790207232e-09       9.512173627389e-11       1.059736943023e-13 
   10       1.110807559577e-10       4.099624216334e-16       1.139415814340e-13       0.000000000000e+00       9.914702914640e-10       8.278649539898e-11       8.869140386257e-14 
   11       1.114764947791e-10       3.444350305235e-16       1.083537879630e-13       0.000000000000e+00       8.355325879672e-10       7.312931552683e-11       5.132269553018e-14 
   12       1.121580022867e-10       3.003707524950e-16       1.096415997261e-13       0.000000000000e+00       7.301395900262e-10       6.463501371244e-11       1.148098490028e-14 
   13       1.130743333946e-10       2.884087851589e-16       1.151040096634e-13       0.000000000000e+00       6.436032830126e-10       5.774218140618e-11      -1.878076408181e-14 
   14       1.141782466471e-10       3.003309188004e-16       1.227046270438e-13       0.000000000000e+00       5.715937275205e-10       5.173813800576e-11      -3.521246174140e-14 
   15       1.154563900552e-10       3.243939981231e-16       1.311415971044e-13       0.000000000000e+00       5.109708421817e-10       4.669070601990e-11      -3.803959836904e-14 
   16       1.168337864107e-10       3.582675110969e-16       1.397444300513e-13       0.000000000000e+00       4.594205043674e-10       4.234351072476e-11      -3.125497325116e-14 
   17       1.183382222674e-10       4.076892200925e-16       1.482932035258e-13       0.000000000000e+00       4.151943171959e-10       3.854940289538e-11      -2.009730965017e-14 
   18       1.199068396890e-10       4.781850569964e-16       1.570466233200e-13       0.000000000000e+00       3.768048326495e-10       3.524101017849e-11      -9.489347291225e-15 
   19       1.215514356579e-10       5.700585386051e-16       1.662293259908e-13       0.000000000000e+00       3.436447823189e-10       3.237122202813e-11      -2.051028035452e-15 
   20       1.232653502104e-10       6.812459172066e-16       1.759854430824e-13       0.000000000000e+00       3.144370607441e-10       2.982392033624e-11       5.023500080402e-16 
   21       1.250506212751e-10       8.110844989004e-16       1.862690241359e-13       0.000000000000e+00       2.887237726874e-10       2.755292003511e-11      -1.245494776933e-15 
   22       1.268816899741e-10       9.590765646674e-16       1.968934482009e-13       0.000000000000e+00       2.658906961121e-10       2.550155397309e-11      -5.518021429395e-15 
   23       1.287639824449e-10       1.125420734908e-15       2.075296995489e-13       0.000000000000e+00       2.456244861201e-10       2.366148971621e-11      -1.055224779493e-14 
   24       1.306916786714e-10       1.310346034219e-15       2.177603925570e-13       0.000000000000e+00       2.274571641019e-10       2.201638690995e-11      -1.447311672115e-14 
   25       1.326673923658e-10       1.513919123156e-15       2.272955770047e-13       0.000000000000e+00       2.111753474380e-10       2.054519829509e-11      -1.644013490791e-14 
   26       1.346805019350e-10       1.736393627093e-15       2.358867172936e-13       0.000000000000e+00       1.964845982753e-10       1.921104145552e-11      -1.611315583768e-14 
   27       1.367264502118e-10       1.979796592090e-15       2.434154606798e-13       0.000000000000e+00       1.832087967534e-10       1.799693814154e-11      -1.411149097530e-14 
   28       1.387938889051e-10       2.246683648238e-15       2.498352186479e-13       0.000000000000e+00       1.711191526834e-10       1.688441052217e-11      -1.144917407115e-14 
   29       1.408925492001e-10       2.538470771695e-15       2.552149427812e-13       0.000000000000e+00       1.601540473350e-10       1.587126550760e-11      -8.800376871134e-15 
   30       1.430274481987e-10       2.856198706280e-15       2.596996156359e-13       0.000000000000e+00       1.501958869417e-10       1.495121387244e-11      -6.854319178882e-15 
   31       1.451930532933e-10       3.200872433690e-15       2.634364229958e-13       0.000000000000e+00       1.410416975797e-10       1.410927479649e-11      -6.246821988510e-15 
   32       1.473928260872e-10       3.573546540381e-15       2.663675133518e-13       0.000000000000e+00       1.326442362592e-10       1.333700145542e-11      -6.787385145972e-15 
   33       1.496242909614e-10       3.975263324020e-15       2.683583967504e-13       0.000000000000e+00       1.249441049713e-10       1.262121620752e-11      -7.928942806578e-15 
   34       1.518779985910e-10       4.406980629515e-15       2.692589768740e-13       0.000000000000e+00       1.178335303890e-10       1.194542551441e-11      -9.064694541651e-15 
   35       1.541565474039e-10       4.869413353907e-15       2.689370824694e-13       0.000000000000e+00       1.112761345417e-10       1.131159579947e-11      -9.912106848651e-15 
   36       1.564604600252e-10       5.363123375193e-15       2.672542798478e-13       0.000000000000e+00       1.052193354339e-10       1.072524073830e-11      -1.025471052183e-14 
   37       1.587859294980e-10       5.888644489187e-15       2.640846429609e-13       0.000000000000e+00       9.958433082600e-11       1.018889335420e-11      -9.920300412067e-15 
   38       1.611373371655e-10       6.446798187127e-15       2.594134597220e-13       0.000000000000e+00       9.435657713327e-11       9.700365302333e-12      -9.060957477289e-15 
   39       1.635177052932e-10       7.038475946184e-15       2.532718732478e-13       0.000000000000e+00       8.951949942325e-11       9.253381315596e-12      -7.969360477790e-15 
   40       1.659246061515e-10       7.664553444619e-15       2.457120943278e-13       0.000000000000e+00       8.502696838801e-11       8.837626302952e-12      -7.009767403527e-15 
   41       1.683529694174e-10       8.325844740525e-15       2.367861897507e-13       0.000000000000e+00       8.081937367918e-11       8.441880299203e-12      -6.522729870524e-15 
   42       1.708059939219e-10       9.022949259834e-15       2.264710766452e-13       0.000000000000e+00       7.688433441468e-11       8.065436642639e-12      -6.490823074595e-15 
   43       1.732868145296e-10       9.756353323269e-15       2.147212579331e-13       0.000000000000e+00       7.321141266950e-11       7.709850505176e-12      -6.771876702951e-15 
   44       1.757950836075e-10       1.052646667132e-14       2.014889363567e-13       0.000000000000e+00       6.977389557216e-11       7.375710487801e-12      -7.187282335379e-15 
   45       1.783286042020e-10       1.133366351858e-14       1.867252221458e-13       0.000000000000e+00       6.653833831827e-11       7.062773949467e-12      -7.561493936445e-15 
   46       1.808896274311e-10       1.217842997443e-14       1.703848316895e-13       0.000000000000e+00       6.349964856399e-11       6.770630728717e-12      -7.859920574675e-15 
   47       1.834798490088e-10       1.306125374992e-14       1.524223278946e-13       0.000000000000e+00       6.065428692667e-11       6.498086629139e-12      -8.088425833797e-15 
   48       1.860983672967e-10       1.398258140164e-14       1.327905771462e-13       0.000000000000e+00       5.798968489974e-11       6.242882406022e-12      -8.255301041619e-15 
   49       1.887414511785e-10       1.494281684818e-14       1.114405608588e-13       0.000000000000e+00       5.548357340968e-11       6.001617781528e-12      -8.371416942985e-15 
   50       1.914047208682e-10       1.594229353621e-14       8.832657308791e-14       0.000000000000e+00       5.311068957949e-11       5.770722518460e-12      -8.450897356756e-15 
   51       1.940909267273e-10       1.698118547391e-14       6.342391380299e-14       0.000000000000e+00       5.086660093129e-11       5.549856670025e-12      -8.513003835649e-15 
   52       1.968038806757e-10       1.805956948419e-14       3.671567250774e-14       0.000000000000e+00       4.874918736375e-11       5.339301944988e-12      -8.581024752030e-15 
   53       1.995461120394e-10       1.917744678548e-14       8.187825403536e-15       0.000000000000e+00       4.675151160825e-11       5.138969238597e-12      -8.681970081351e-15 
   54       2.023187489738e-10       2.033474026821e-14      -2.217069959795e-14       0.000000000000e+00       4.486149499556e-11       4.948371921099e-12      -8.846747639077e-15 
   55       2.051220995524e-10       2.153134093597e-14      -5.436823494931e-14       0.000000000000e+00       4.306560237392e-11       4.766860613289e-12      -9.100393628406e-15 
   56       2.079578357214e-10       2.276726697868e-14      -8.841122032347e-14       0.000000000000e+00       4.136171162852e-11       4.594457005107e-12      -9.429518518222e-15 
   57       2.108271441910e-10       2.404253944614e-14      -1.243034522602e-13       0.000000000000e+00       3.974887330683e-11       4.431180388214e-12      -9.807082715160e-15 
   58       2.137299849768e-10       2.535713575504e-14      -1.620457724739e-13       0.000000000000e+00       3.822341719914e-11       4.276788153120e-12      -1.020142704721e-14 
   59       2.166650000839e-10       2.671098888098e-14      -2.016360136367e-13       0.000000000000e+00       3.677878430593e-11       4.130759265500e-12      -1.057606150624e-14 
   60       2.196294221900e-10       2.810398655040e-14      -2.430689451614e-13       0.000000000000e+00       3.540535880529e-11       3.992277742515e-12      -1.088945399055e-14 
   61       2.226203576335e-10       2.953589247761e-14      -2.863366926675e-13       0.000000000000e+00       3.409313817040e-11       3.860460062110e-12      -1.110451497003e-14 
   62       2.256391784831e-10       3.100609124478e-14      -3.314302290577e-13       0.000000000000e+00       3.284082402022e-11       3.735134420688e-12      -1.122001718942e-14 
   63       2.286879587593e-10       3.251378446302e-14      -3.783381234434e-13       0.000000000000e+00       3.164848291742e-11       3.616207862644e-12      -1.124588567031e-14 
   64       2.317681403578e-10       3.405806045774e-14      -4.270460585845e-13       0.000000000000e+00       3.051481184352e-11       3.503429172130e-12      -1.119421859133e-14 
   65       2.348804853391e-10       3.563789098714e-14      -4.775367917019e-13       0.000000000000e+00       2.943706021865e-11       3.396380089183e-12      -1.107938367499e-14 
   66       2.380250282175e-10       3.725212796073e-14      -5.297901152896e-13       0.000000000000e+00       2.841095192126e-11       3.294466525852e-12      -1.091811457452e-14 
   67       2.412010282508e-10       3.889950015783e-14      -5.837828179280e-13       0.000000000000e+00       2.743060730785e-11       3.196909782325e-12      -1.072960726065e-14 
   68       2.444075989077e-10       4.057874477778e-14      -6.394902946524e-13       0.000000000000e+00       2.649011353372e-11       3.102946288427e-12      -1.053193192235e-14 
   69       2.476458510274e-10       4.228904037860e-14      -6.968918445652e-13       0.000000000000e+00       2.558877931113e-11       3.012493460636e-12      -1.033020895728e-14 
   70       2.509171002067e-10       4.402965617112e-14      -7.559663811936e-13       0.000000000000e+00       2.472680970847e-11       2.925603605406e-12      -1.012619927113e-14 
   71       2.542221981979e-10       4.579982511309e-14      -8.166908808572e-13       0.000000000000e+00       2.390371687616e-11       2.842263942602e-12      -9.921778895352e-15 
   72       2.575615025174e-10       4.759874407605e-14      -8.790403856690e-13       0.000000000000e+00       2.311828422241e-11       2.762393154755e-12      -9.718941141611e-15 
   73       2.609348460543e-10       4.942557401225e-14      -9.429880065363e-13       0.000000000000e+00       2.236853058898e-11       2.685837936325e-12      -9.519798756237e-15 
   74       2.643415066786e-10       5.127944012150e-14      -1.008504926161e-12       0.000000000000e+00       2.165167442693e-11       2.612369542952e-12      -9.326586074670e-15 
   75       2.677801768502e-10       5.315943201813e-14      -1.075560402040e-12       0.000000000000e+00       2.096409797244e-11       2.541680340719e-12      -9.141661175903e-15 
   76       2.712495676247e-10       5.506454009994e-14      -1.144121433806e-12       0.000000000000e+00       2.030224535589e-11       2.473465009178e-12      -8.967198049495e-15 
   77       2.747504150142e-10       5.699345089053e-14      -1.214151688577e-12       0.000000000000e+00       1.966558519540e-11       2.407688873779e-12      -8.804193527201e-15 
   78       2.782837859807e-10       5.894471450648e-14      -1.285612384179e-12       0.000000000000e+00       1.905412567109e-11       2.344362463188e-12      -8.653282333380e-15 
   79       2.818504593946e-10       6.091680402156e-14      -1.358462603605e-12       0.000000000000e+00       1.846751211540e-11       2.283459509335e-12      -8.515026873040e-15 
   80       2.854509086521e-10       6.290811432533e-14      -1.432659291129e-12       0.000000000000e+00       1.790501033991e-11       2.224915232569e-12      -8.389913029734e-15 
   81       2.890852842922e-10       6.491696098186e-14      -1.508157248429e-12       0.000000000000e+00       1.736548996214e-11       2.168624626803e-12      -8.278345963473e-15 
   82       2.927533966144e-10       6.694157908836e-14      -1.584909130700e-12       0.000000000000e+00       1.684740773243e-11       2.114440744670e-12      -8.180645908621e-15 
   83       2.964546982956e-10       6.898012213390e-14      -1.662865442774e-12       0.000000000000e+00       1.634879086072e-11       2.062172982675e-12      -8.097043971806e-15 
   84       3.001885782423e-10       7.103073127618e-14      -1.741975100059e-12       0.000000000000e+00       1.586771654282e-11       2.011634735575e-12      -8.027411701960e-15 
   85       3.039553371939e-10       7.309175886791e-14      -1.822187226707e-12       0.000000000000e+00       1.540387839961e-11       1.962799192877e-12      -7.970407494573e-15 
   86       3.077553427352e-10       7.516158006607e-14      -1.903449649812e-12       0.000000000000e+00       1.495725035822e-11       1.915666346098e-12      -7.924180317070e-15 
   87       3.115887204696e-10       7.723852575003e-14      -1.985708366622e-12       0.000000000000e+00       1.452760533051e-11       1.870215043850e-12      -7.886614806363e-15 
   88       3.154553418669e-10       7.932088256367e-14      -2.068907550146e-12       0.000000000000e+00       1.411450687941e-11       1.826402106724e-12      -7.855322592335e-15 
   89       3.193548121115e-10       8.140689295757e-14      -2.152989554771e-12       0.000000000000e+00       1.371730088519e-11       1.784161442184e-12      -7.827633621327e-15 
   90       3.232864579509e-10       8.349475523116e-14      -2.237894921863e-12       0.000000000000e+00       1.333510721180e-11       1.743403159445e-12      -7.800587479623e-15 
   91       3.272493155435e-10       8.558262357488e-14      -2.323562385386e-12       0.000000000000e+00       1.296681137317e-11       1.704012684367e-12      -7.770924716938e-15 
   92       3.312421183069e-10       8.766860811239e-14      -2.409928877510e-12       0.000000000000e+00       1.261105619956e-11       1.665849874337e-12      -7.735078169903e-15 
   93       3.352636584506e-10       8.975080275429e-14      -2.496930462235e-12       0.000000000000e+00       1.226656390970e-11       1.628783362260e-12      -7.689994057119e-15 
   94       3.393139601676e-10       9.182737345990e-14      -2.584505284708e-12       0.000000000000e+00       1.193317583872e-11       1.592801419672e-12      -7.635755373758e-15 
   95       3.433932612443e-10       9.389648338984e-14      -2.672591077926e-12       0.000000000000e+00       1.161095440490e-11       1.557916208544e-12      -7.573338849598e-15 
   96       3.475016481699e-10       9.595626669541e-14      -2.761124292340e-12       0.000000000000e+00       1.129986288971e-11       1.524129641703e-12      -7.503823010665e-15 
   97       3.516390491135e-10       9.800482894255e-14      -2.850040114210e-12       0.000000000000e+00       1.099976163959e-11       1.491432981302e-12      -7.428390892862e-15 
   98       3.558052269025e-10       1.000402475358e-13      -2.939272483952e-12       0.000000000000e+00       1.071040426769e-11       1.459806437292e-12      -7.348332755593e-15 
   99       3.599997719996e-10       1.020605721420e-13      -3.028754114485e-12       0.000000000000e+00       1.043143385558e-11       1.429218765893e-12      -7.265048795383e-15 
  100       3.642220954809e-10       1.040638251147e-13      -3.118416509587e-12       0.000000000000e+00       1.016237915505e-11       1.399626868062e-12      -7.180051859509e-15 
  101       3.684714220132e-10       1.060480019177e-13      -3.208189982235e-12       0.000000000000e+00       9.902650789779e-12       1.370975387967e-12      -7.094970159618e-15 
  102       3.727467828322e-10       1.080110715489e-13      -3.298003672964e-12       0.000000000000e+00       9.651537457142e-12       1.343196311458e-12      -7.011549985355e-15 
  103       3.770470087195e-10       1.099509769647e-13      -3.387785568207e-12       0.000000000000e+00       9.408202129911e-12       1.316208564534e-12      -6.931658417986e-15 
  104       3.813709654620e-10       1.118656866029e-13      -3.477463117649e-12       0.000000000000e+00       9.171871851837e-12       1.289937075150e-12      -6.856882960312e-15 
  105       3.857183115770e-10       1.137533559671e-13      -3.566965141716e-12       0.000000000000e+00       8.942444504529e-12       1.264373756047e-12      -6.787262986285e-15 
  106       3.900888303296e-10       1.156121887619e-13      -3.656220217163e-12       0.000000000000e+00       8.719957306468e-12       1.239524049593e-12      -6.722391189954e-15 
  107       3.944821920864e-10       1.174403887164e-13      -3.745156125723e-12       0.000000000000e+00       8.504398887873e-12       1.215388014707e-12      -6.661799671562e-15 
