# dimensionless total lensed [l(l+1)/2pi] C_l's
# for l=2 to 2500, i.e. number of multipoles equal to 2499
#
# -> if you prefer output in CAMB/HealPix/LensPix units/order, set 'format' to 'camb' in input file
# -> if you don't want to see such a header, set 'headers' to 'no' in input file
# -> for CMB lensing (phi), these are C_l^phi-phi for the lensing potential.
#    Remember the conversion factors:
#    C_l^dd (deflection) = l(l+1) C_l^phi-phi
#    C_l^gg (shear/convergence) = 1/4 (l(l+1))^2 C_l^phi-phi
#
# 1:l     2:TT                     3:EE                     4:TE                     5:BB                     6:phiphi                 7:TPhi                   8:Ephi               
    2       1.384802968663e-10       4.194444482232e-15       3.528453083271e-13       2.355376053164e-19       8.305670885948e-09       4.577898342599e-10      -1.846129350823e-12 
    3       1.310866487714e-10       5.376586431347e-15       3.970024363773e-13       4.711741381297e-19       5.116326541654e-09       3.251412359748e-10      -1.398648607249e-12 
    4       1.241475017107e-10       4.650634368524e-15       3.716741086340e-13       7.855080777609e-19       3.559757841945e-09       2.464870351175e-10      -9.158606576808e-13 
    5       1.190039064573e-10       3.103097634301e-15       3.168836062065e-13       1.178665843029e-18       2.659134049334e-09       1.948542725528e-10      -5.093385074888e-13 
    6       1.155373742820e-10       1.736381379451e-15       2.555470791151e-13       1.650800871221e-18       2.078799161322e-09       1.586272990172e-10      -2.099110715361e-13 
    7       1.133426028695e-10       9.395281525005e-16       2.009531751500e-13       2.202090766428e-18       1.678465709541e-09       1.320110879412e-10      -1.908264863625e-14 
    8       1.121401477235e-10       6.068748676482e-16       1.589613876776e-13       2.832734073781e-18       1.388272301135e-09       1.118067980332e-10       7.812009300545e-14 
    9       1.116780704859e-10       4.876705219984e-16       1.309134449534e-13       3.542946774845e-18       1.169719953148e-09       9.611750720182e-11       1.051202826841e-13 
   10       1.117218747700e-10       4.171461234122e-16       1.155203223007e-13       4.332958606128e-18       1.000170863384e-09       8.368048175987e-11       8.787143652956e-14 
   11       1.122149213843e-10       3.536183670323e-16       1.101295603034e-13       5.203009305805e-18       8.431598162662e-10       7.393492465103e-11       5.059137049890e-14 
   12       1.130004660903e-10       3.121237552708e-16       1.116719013987e-13       6.153344893199e-18       7.369324981503e-10       6.535942550527e-11       1.087220348392e-14 
   13       1.140292452932e-10       3.030413459985e-16       1.174442868860e-13       7.184214081430e-18       6.496860248643e-10       5.839305447335e-11      -1.922607307283e-14 
   14       1.152544456964e-10       3.181747706105e-16       1.254014420788e-13       8.295864916082e-18       5.770653378158e-10       5.232812114008e-11      -3.548471886524e-14 
   15       1.166606838846e-10       3.460175454815e-16       1.342297793739e-13       9.488541722072e-18       5.159122640847e-10       4.722551692503e-11      -3.815712084514e-14 
   16       1.181692029358e-10       3.844728735059e-16       1.432511033237e-13       1.076248242755e-17       4.638983249043e-10       4.282510076604e-11      -3.126800930984e-14 
   17       1.198117471332e-10       4.393716346149e-16       1.522369777593e-13       1.211791631818e-17       4.192637799160e-10       3.898370700284e-11      -2.006896727255e-14 
   18       1.215216204338e-10       5.161998136708e-16       1.614453483140e-13       1.355506207130e-17       3.805114477060e-10       3.563468888492e-11      -9.486840040576e-15 
   19       1.233095285891e-10       6.152552945686e-16       1.710989854424e-13       1.507412739565e-17       3.470306182140e-10       3.272967103856e-11      -2.130587096094e-15 
   20       1.251694837357e-10       7.344903881958e-16       1.813389099100e-13       1.667530614923e-17       3.175348121822e-10       3.015011746835e-11       3.078875530953e-16 
   21       1.271024060435e-10       8.733324727034e-16       1.921167471869e-13       1.835878089358e-17       2.915631970753e-10       2.784911263850e-11      -1.561185310117e-15 
   22       1.290810833870e-10       1.031392500905e-15       2.032435686567e-13       2.012471973515e-17       2.684968734620e-10       2.576956525945e-11      -5.931448532413e-15 
   23       1.311105618075e-10       1.208902512585e-15       2.143874117442e-13       2.197328035016e-17       2.480203274080e-10       2.390375940422e-11      -1.102417728970e-14 
   24       1.331849669428e-10       1.406102671060e-15       2.251282771751e-13       2.390460677041e-17       2.296618624687e-10       2.223597995654e-11      -1.495537955444e-14 
   25       1.353059357745e-10       1.623121763022e-15       2.351765609320e-13       2.591883512722e-17       2.132065111673e-10       2.074483925504e-11      -1.688896974979e-14 
   26       1.374616307534e-10       1.860297757027e-15       2.442854395543e-13       2.801608978415e-17       1.983573816141e-10       1.939258089147e-11      -1.649803637769e-14 
   27       1.396469479096e-10       2.119756218242e-15       2.523377271626e-13       3.019648884193e-17       1.849369751318e-10       1.816166205564e-11      -1.442469747028e-14 
   28       1.418502327909e-10       2.404152623204e-15       2.592885384730e-13       3.246014148368e-17       1.727145690979e-10       1.703310952687e-11      -1.170870656160e-14 
   29       1.440808339980e-10       2.714963902772e-15       2.652101673490e-13       3.480715691658e-17       1.616280993527e-10       1.600495776307e-11      -9.031789497423e-15 
   30       1.463434095836e-10       3.053275484931e-15       2.702522725340e-13       3.723763687011e-17       1.515589108374e-10       1.507134500258e-11      -7.084807248671e-15 
   31       1.486321109499e-10       3.420135870323e-15       2.745663886948e-13       3.975167552487e-17       1.423021078033e-10       1.421757748943e-11      -6.502808373713e-15 
   32       1.509500434549e-10       3.816662839306e-15       2.780931898439e-13       4.234937071930e-17       1.338100633312e-10       1.343492960309e-11      -7.086632625993e-15 
   33       1.532943923221e-10       4.243968304383e-15       2.806942313768e-13       4.503081668999e-17       1.260228596381e-10       1.270961533734e-11      -8.275669953318e-15 
   34       1.556554027640e-10       4.703076134677e-15       2.822150676640e-13       4.779610266558e-17       1.188317023441e-10       1.202450897109e-11      -9.448809688246e-15 
   35       1.580353756279e-10       5.194747547095e-15       2.825214207099e-13       5.064531827885e-17       1.121998723644e-10       1.138167220572e-11      -1.031882294039e-14 
   36       1.604345638883e-10       5.719580954114e-15       2.814732167692e-13       5.357855012604e-17       1.060742577385e-10       1.078694582893e-11      -1.066730811660e-14 
   37       1.628489427836e-10       6.278146193423e-15       2.789430792211e-13       5.659587982993e-17       1.003752499824e-10       1.024314703228e-11      -1.032146719136e-14 
   38       1.652827805386e-10       6.871319150175e-15       2.749165256812e-13       5.969738199406e-17       9.508816403539e-11       9.748060650281e-12      -9.438577131066e-15 
   39       1.677390599595e-10       7.500051197760e-15       2.694256228481e-13       6.288312565915e-17       9.019625839392e-11       9.295247740914e-12      -8.319467095614e-15 
   40       1.702153772294e-10       8.165278400843e-15       2.625238251554e-13       6.615317489336e-17       8.565292552453e-11       8.874157473052e-12      -7.338466580753e-15 
   41       1.727067153397e-10       8.867871329468e-15       2.542640399066e-13       6.950758581103e-17       8.139793189059e-11       8.473330125641e-12      -6.845279205413e-15 
   42       1.752162333956e-10       9.608467186866e-15       2.446211220579e-13       7.294639638467e-17       7.741875882156e-11       8.092059126138e-12      -6.820784400029e-15 
   43       1.777470211441e-10       1.038758139932e-14       2.335463283351e-13       7.646963337003e-17       7.370484531754e-11       7.731965953420e-12      -7.117170653594e-15 
   44       1.802987144397e-10       1.120564783944e-14       2.209880727107e-13       8.007731486090e-17       7.022918063585e-11       7.393704720477e-12      -7.548847196313e-15 
   45       1.828691300292e-10       1.206306220147e-14       2.068936594527e-13       8.376944655229e-17       6.695794975721e-11       7.077082964360e-12      -7.933581426872e-15 
   46       1.854605672420e-10       1.296033786906e-14       1.912158196682e-13       8.754600961681e-17       6.388599401148e-11       6.781677473499e-12      -8.236077619147e-15 
   47       1.880748022936e-10       1.389798922654e-14       1.739076095173e-13       9.140696890114e-17       6.100972447305e-11       6.506250695099e-12      -8.463351921945e-15 
   48       1.907110458243e-10       1.487648639687e-14       1.549203583903e-13       9.535227579736e-17       5.831642660614e-11       6.248481464878e-12      -8.625152108778e-15 
   49       1.933657113054e-10       1.589625362920e-14       1.342034809516e-13       9.938186786007e-17       5.578358178487e-11       6.004887822669e-12      -8.734126897087e-15 
   50       1.960345840528e-10       1.695764090591e-14       1.117095348400e-13       1.034956687201e-16       5.338564529883e-11       5.771817790320e-12      -8.806220299272e-15 
   51       1.987205596502e-10       1.806083341860e-14       8.741144829027e-14       1.076935886865e-16       5.111812340508e-11       5.548917822119e-12      -8.861588047547e-15 
   52       2.014276057088e-10       1.920591473322e-14       6.128964386097e-14       1.119755236459e-16       4.897885892568e-11       5.336472408073e-12      -8.924222600908e-15 
   53       2.041584290345e-10       2.039288861858e-14       3.332725898689e-14       1.163413544206e-16       4.696082614982e-11       5.134392108396e-12      -9.021925495343e-15 
   54       2.069143570034e-10       2.162167617368e-14       3.510204877317e-15       1.207909463988e-16       4.505180324743e-11       4.942186626168e-12      -9.186487252782e-15 
   55       2.096959069783e-10       2.289216408755e-14      -2.817280191334e-14       1.253241581880e-16       4.323809671029e-11       4.759202012911e-12      -9.443623865543e-15 
   56       2.125049319622e-10       2.420437003912e-14      -6.173027052042e-14       1.299408709351e-16       4.151754862008e-11       4.585462978666e-12      -9.779446526419e-15 
   57       2.153428001912e-10       2.555831335452e-14      -9.716780927866e-14       1.346409656435e-16       3.988918687154e-11       4.420992664465e-12      -1.016597738438e-14 
   58       2.182096639747e-10       2.695396661321e-14      -1.344880424950e-13       1.394243147729e-16       3.834929022894e-11       4.265550568076e-12      -1.057044876199e-14 
   59       2.211043678779e-10       2.839125476745e-14      -1.736905526149e-13       1.442907822217e-16       3.689121861084e-11       4.118615907550e-12      -1.095508396987e-14 
   60       2.240243569038e-10       2.987005426186e-14      -2.147718223887e-13       1.492402233094e-16       3.550524337478e-11       3.979370984773e-12      -1.127687812121e-14 
   61       2.269669577616e-10       3.139011146433e-14      -2.577257569171e-13       1.542725009937e-16       3.418124556209e-11       3.846928278327e-12      -1.149742596708e-14 
   62       2.299337664608e-10       3.295077855574e-14      -3.025455175550e-13       1.593875388143e-16       3.291790231444e-11       3.721108923994e-12      -1.161547905734e-14 
   63       2.329270871096e-10       3.455121652563e-14      -3.492219988935e-13       1.645852798559e-16       3.171527066839e-11       3.601810246108e-12      -1.164134069303e-14 
   64       2.359485984379e-10       3.619046725703e-14      -3.977432465512e-13       1.698656720505e-16       3.057202439136e-11       3.488768720716e-12      -1.158756138629e-14 
   65       2.389993055466e-10       3.786745008576e-14      -4.480944177394e-13       1.752286686747e-16       2.948537526461e-11       3.381551072474e-12      -1.146903845921e-14 
   66       2.420794916569e-10       3.958095835977e-14      -5.002577418276e-13       1.806742288480e-16       2.845099436610e-11       3.279545371540e-12      -1.130311564271e-14 
   67       2.451886698596e-10       4.132965599846e-14      -5.542124809092e-13       1.862023180298e-16       2.746293335352e-11       3.181952130467e-12      -1.110968267536e-14 
   68       2.483262068145e-10       4.311221461087e-14      -6.099364583812e-13       1.918129167485e-16       2.651521072110e-11       3.087988197880e-12      -1.090744124708e-14 
   69       2.514934484561e-10       4.492776480425e-14      -6.674110924979e-13       1.975060477281e-16       2.560711976288e-11       2.997566315533e-12      -1.070160159571e-14 
   70       2.546919403113e-10       4.677553056169e-14      -7.266173165923e-13       2.032817551775e-16       2.473885967355e-11       2.910737896136e-12      -1.049386038631e-14 
   71       2.579227631509e-10       4.865469692582e-14      -7.875341019604e-13       2.091400977410e-16       2.390993025035e-11       2.827489011193e-12      -1.028601531109e-14 
   72       2.611865019241e-10       5.056441015302e-14      -8.501384585292e-13       2.150811492068e-16       2.311909575853e-11       2.747736930258e-12      -1.007996664084e-14 
   73       2.644832146932e-10       5.250377786755e-14      -9.144054355253e-13       2.211049992151e-16       2.236434879673e-11       2.671326660212e-12      -9.877718776300e-15 
   74       2.678124015684e-10       5.447186921581e-14      -9.803081221425e-13       2.272117539663e-16       2.164287416236e-11       2.598027484525e-12      -9.681381799612e-15 
   75       2.711729736422e-10       5.646771502042e-14      -1.047817648210e-12       2.334015369290e-16       2.095101271700e-11       2.527529502523e-12      -9.493173025730e-15 
   76       2.745638617674e-10       5.849024212571e-14      -1.116902802794e-12       2.396744818638e-16       2.028516815287e-11       2.459524953161e-12      -9.315151205258e-15 
   77       2.779860397239e-10       6.053806227095e-14      -1.187528808222e-12       2.460307088613e-16       1.964479806708e-11       2.393976957148e-12      -9.148359746217e-15 
   78       2.814408152608e-10       6.260964481838e-14      -1.259658322675e-12       2.524703452003e-16       1.902990520897e-11       2.330893721475e-12      -8.993529347364e-15 
   79       2.849292053281e-10       6.470337797053e-14      -1.333251795363e-12       2.589935331872e-16       1.844012643908e-11       2.270246408173e-12      -8.851327619127e-15 
   80       2.884519181322e-10       6.681756757491e-14      -1.408267459367e-12       2.656004307058e-16       1.787471592944e-11       2.211967412149e-12      -8.722355152821e-15 
   81       2.920093351908e-10       6.895043592876e-14      -1.484661324465e-12       2.722912117686e-16       1.733252836391e-11       2.155948639035e-12      -8.607141589866e-15 
   82       2.956014933883e-10       7.110012058376e-14      -1.562387169972e-12       2.790660670666e-16       1.681200213857e-11       2.102039783026e-12      -8.506141691005e-15 
   83       2.992280670307e-10       7.326467315075e-14      -1.641396537568e-12       2.859252045207e-16       1.631114256201e-11       2.050046604725e-12      -8.419731405526e-15 
   84       3.028886607771e-10       7.544213172493e-14      -1.721639270739e-12       2.928688466180e-16       1.582800559804e-11       1.999779412577e-12      -8.347898909694e-15 
   85       3.065837835381e-10       7.763075457517e-14      -1.803065251529e-12       2.998972207087e-16       1.536227803426e-11       1.951211514080e-12      -8.289267482527e-15 
   86       3.103140038785e-10       7.982882318405e-14      -1.885622939906e-12       3.070105681029e-16       1.491392968862e-11       1.904343997071e-12      -8.241902683476e-15 
   87       3.140796409641e-10       8.203457211333e-14      -1.969258854741e-12       3.142091476304e-16       1.448272789458e-11       1.859156996193e-12      -8.203594056910e-15 
   88       3.178807518408e-10       8.424618904588e-14      -2.053917575835e-12       3.214932361376e-16       1.406822911401e-11       1.815608814491e-12      -8.171846074765e-15 
   89       3.217171187154e-10       8.646181482782e-14      -2.139541745936e-12       3.288631289837e-16       1.366977054997e-11       1.773635045018e-12      -8.143869079197e-15 
   90       3.255882362350e-10       8.867954351047e-14      -2.226072072759e-12       3.363191405377e-16       1.328646175951e-11       1.733147692432e-12      -8.116570225232e-15 
   91       3.294932987673e-10       9.089742239245e-14      -2.313447331008e-12       3.438616046746e-16       1.291717626655e-11       1.694034294596e-12      -8.086544423418e-15 
   92       3.334311876803e-10       9.311345206167e-14      -2.401604364393e-12       3.514908752724e-16       1.256054317463e-11       1.656157044178e-12      -8.050065282471e-15 
   93       3.374008382408e-10       9.532561632221e-14      -2.490479026070e-12       3.592073350550e-16       1.221527175703e-11       1.619386452994e-12      -8.003941877602e-15 
   94       3.414024310603e-10       9.753197703223e-14      -2.580009157354e-12       3.670114225648e-16       1.188119928775e-11       1.583710044666e-12      -7.948256129417e-15 
   95       3.454363571581e-10       9.973059367378e-14      -2.670132062826e-12       3.749036101839e-16       1.155838603058e-11       1.549138461340e-12      -7.884022296541e-15 
   96       3.495028469014e-10       1.019194951851e-13      -2.760783626532e-12       3.828843967522e-16       1.124679253849e-11       1.515671978708e-12      -7.812360623200e-15 
   97       3.536019624958e-10       1.040966804129e-13      -2.851898326884e-12       3.909543081778e-16       1.094627583717e-11       1.483300101767e-12      -7.734500166921e-15 
   98       3.577335904765e-10       1.062601185644e-13      -2.943409251566e-12       3.991138980489e-16       1.065658560858e-11       1.452001160589e-12      -7.651781626233e-15 
   99       3.618974341993e-10       1.084077496601e-13      -3.035248112432e-12       4.073637482445e-16       1.037736037449e-11       1.421741906078e-12      -7.565660168362e-15 
  100       3.660930063311e-10       1.105374849855e-13      -3.127345260409e-12       4.157044695458e-16       1.010812368000e-11       1.392477105733e-12      -7.477708256926e-15 
  101       3.703196213414e-10       1.126472075435e-13      -3.219629700398e-12       4.241367022472e-16       9.848280277132e-12       1.364149139416e-12      -7.389618479637e-15 
  102       3.745763879928e-10       1.147347725071e-13      -3.312029106175e-12       4.326611167677e-16       9.597112308333e-12       1.336687595108e-12      -7.303206375998e-15 
  103       3.788622018318e-10       1.167980076708e-13      -3.404469835294e-12       4.412784142615e-16       9.353775490041e-12       1.310008864676e-12      -7.220413264999e-15 
  104       3.831759907888e-10       1.188347678384e-13      -3.496877589250e-12       4.499893055675e-16       9.117490117743e-12       1.284035676000e-12      -7.142890184321e-15 
  105       3.875175059338e-10       1.208431053760e-13      -3.589179463428e-12       4.587944434993e-16       8.888151686643e-12       1.258759564963e-12      -7.070679608173e-15 
  106       3.918866240381e-10       1.228211236485e-13      -3.681302203142e-12       4.676944825050e-16       8.665796025979e-12       1.234186128190e-12      -7.003360091372e-15 
  107       3.962830993341e-10       1.247669261742e-13      -3.773171604829e-12       4.766900998814e-16       8.450410188031e-12       1.210315657354e-12      -6.940447501420e-15 
